# time(s) acc(g) matched FFT
0.000000e+00 4.084385e-04
2.000000e-02 3.101935e-04
4.000000e-02 2.118890e-04
6.000000e-02 1.943721e-04
8.000000e-02 2.276594e-04
1.000000e-01 3.508846e-04
1.200000e-01 4.949075e-04
1.400000e-01 6.755580e-04
1.600000e-01 8.207665e-04
1.800000e-01 9.632553e-04
2.000000e-01 1.057242e-03
2.200000e-01 1.160616e-03
2.400000e-01 1.239235e-03
2.600000e-01 1.345889e-03
2.800000e-01 1.425312e-03
3.000000e-01 1.504490e-03
3.200000e-01 1.507994e-03
3.400000e-01 1.461033e-03
3.600000e-01 1.306666e-03
3.800000e-01 1.106892e-03
4.000000e-01 8.454442e-04
4.200000e-01 6.160502e-04
4.400000e-01 4.092475e-04
4.600000e-01 2.976800e-04
4.800000e-01 2.245423e-04
5.000000e-01 2.061166e-04
5.200000e-01 1.364995e-04
5.400000e-01 1.156890e-05
5.600000e-01 -2.594555e-04
5.800000e-01 -6.283243e-04
6.000000e-01 -1.113926e-03
6.200000e-01 -1.594963e-03
6.400000e-01 -2.043187e-03
6.600000e-01 -2.328248e-03
6.800000e-01 -2.458814e-03
7.000000e-01 -2.372507e-03
7.200000e-01 -2.160081e-03
7.400000e-01 -1.825413e-03
7.600000e-01 -1.494020e-03
7.800000e-01 -1.159379e-03
8.000000e-01 -9.027485e-04
8.200000e-01 -6.528488e-04
8.400000e-01 -4.357599e-04
8.600000e-01 -1.502860e-04
8.800000e-01 1.659220e-04
9.000000e-01 5.719230e-04
9.200000e-01 9.694930e-04
9.400000e-01 1.370596e-03
9.600000e-01 1.659400e-03
9.800000e-01 1.877722e-03
1.000000e+00 1.973931e-03
1.020000e+00 2.073818e-03
1.040000e+00 2.190637e-03
1.060000e+00 2.474383e-03
1.080000e+00 2.896892e-03
1.100000e+00 3.512936e-03
1.120000e+00 4.160872e-03
1.140000e+00 4.771518e-03
1.160000e+00 5.100823e-03
1.180000e+00 5.078828e-03
1.200000e+00 4.541427e-03
1.220000e+00 3.573161e-03
1.240000e+00 2.190750e-03
1.260000e+00 6.490440e-04
1.280000e+00 -9.300735e-04
1.300000e+00 -2.265987e-03
1.320000e+00 -3.303456e-03
1.340000e+00 -3.885584e-03
1.360000e+00 -4.112187e-03
1.380000e+00 -3.958900e-03
1.400000e+00 -3.619089e-03
1.420000e+00 -3.098358e-03
1.440000e+00 -2.580136e-03
1.460000e+00 -2.028456e-03
1.480000e+00 -1.593594e-03
1.500000e+00 -1.215241e-03
1.520000e+00 -1.043672e-03
1.540000e+00 -1.011489e-03
1.560000e+00 -1.248986e-03
1.580000e+00 -1.622790e-03
1.600000e+00 -2.168716e-03
1.620000e+00 -2.636471e-03
1.640000e+00 -2.979361e-03
1.660000e+00 -2.922920e-03
1.680000e+00 -2.502338e-03
1.700000e+00 -1.613909e-03
1.720000e+00 -5.238819e-04
1.740000e+00 6.620549e-04
1.760000e+00 1.552579e-03
1.780000e+00 2.078981e-03
1.800000e+00 2.044330e-03
1.820000e+00 1.709990e-03
1.840000e+00 1.229666e-03
1.860000e+00 1.113153e-03
1.880000e+00 1.584377e-03
1.900000e+00 2.987059e-03
1.920000e+00 5.178936e-03
1.940000e+00 8.023425e-03
1.960000e+00 1.102260e-02
1.980000e+00 1.386932e-02
2.000000e+00 1.629251e-02
2.020000e+00 1.836749e-02
2.040000e+00 2.052516e-02
2.060000e+00 2.309599e-02
2.080000e+00 2.655988e-02
2.100000e+00 3.065496e-02
2.120000e+00 3.542472e-02
2.140000e+00 3.586519e-02
2.160000e+00 3.368533e-02
2.180000e+00 3.897327e-03
2.200000e+00 -1.856874e-02
2.220000e+00 -2.602266e-02
2.240000e+00 -4.392965e-02
2.260000e+00 -4.377150e-02
2.280000e+00 -4.294983e-02
2.300000e+00 -2.922525e-02
2.320000e+00 -1.561127e-02
2.340000e+00 4.982440e-03
2.360000e+00 2.396995e-02
2.380000e+00 3.737013e-02
2.400000e+00 6.095019e-02
2.420000e+00 -7.886503e-03
2.440000e+00 -2.114398e-01
2.460000e+00 -1.626070e-01
2.480000e+00 -1.810183e-01
2.500000e+00 -1.196223e-01
2.520000e+00 -6.664014e-02
2.540000e+00 2.623721e-02
2.560000e+00 -4.410764e-02
2.580000e+00 -1.754446e-01
2.600000e+00 -1.555672e-01
2.620000e+00 -1.807552e-01
2.640000e+00 -1.748792e-01
2.660000e+00 -1.545569e-01
2.680000e+00 -1.233453e-01
2.700000e+00 -7.990855e-02
2.720000e+00 -3.540185e-02
2.740000e+00 7.042273e-03
2.760000e+00 3.546082e-02
2.780000e+00 5.003437e-02
2.800000e+00 -5.532272e-03
2.820000e+00 -7.250208e-02
2.840000e+00 -1.424877e-01
2.860000e+00 -1.661568e-01
2.880000e+00 -1.316805e-01
2.900000e+00 -9.210262e-02
2.920000e+00 -2.297429e-02
2.940000e+00 4.485873e-02
2.960000e+00 1.130797e-01
2.980000e+00 1.594606e-01
3.000000e+00 1.893544e-01
3.020000e+00 8.715408e-02
3.040000e+00 3.101549e-02
3.060000e+00 4.202446e-02
3.080000e+00 2.717873e-02
3.100000e+00 5.431432e-02
3.120000e+00 7.860239e-02
3.140000e+00 1.198245e-01
3.160000e+00 1.530527e-01
3.180000e+00 1.792548e-01
3.200000e+00 4.245611e-02
3.220000e+00 3.016023e-02
3.240000e+00 6.197042e-02
3.260000e+00 4.657923e-02
3.280000e+00 1.083123e-01
3.300000e+00 1.110055e-01
3.320000e+00 1.959730e-01
3.340000e+00 -1.287237e-01
3.360000e+00 -1.611847e-01
3.380000e+00 -8.545725e-02
3.400000e+00 -6.975606e-02
3.420000e+00 -5.697014e-03
3.440000e+00 5.481598e-02
3.460000e+00 -1.471287e-01
3.480000e+00 -1.932881e-01
3.500000e+00 -1.371177e-01
3.520000e+00 -1.339305e-01
3.540000e+00 -7.477752e-02
3.560000e+00 -4.261255e-02
3.580000e+00 -2.735140e-03
3.600000e+00 -1.666290e-03
3.620000e+00 -7.978359e-02
3.640000e+00 -5.943650e-02
3.660000e+00 -7.683900e-02
3.680000e+00 -5.980888e-02
3.700000e+00 -4.442735e-02
3.720000e+00 -3.552990e-03
3.740000e+00 3.162412e-02
3.760000e+00 5.820893e-02
3.780000e+00 2.383043e-02
3.800000e+00 -1.537126e-03
3.820000e+00 -2.558873e-02
3.840000e+00 1.056874e-02
3.860000e+00 3.062819e-02
3.880000e+00 8.311821e-02
3.900000e+00 1.326299e-01
3.920000e+00 2.001313e-01
3.940000e+00 2.535176e-01
3.960000e+00 2.968540e-01
3.980000e+00 1.489189e-01
4.000000e+00 9.061983e-02
4.020000e+00 9.153016e-02
4.040000e+00 6.435882e-02
4.060000e+00 -2.868152e-03
4.080000e+00 -3.242803e-02
4.100000e+00 -5.224595e-03
4.120000e+00 7.935903e-03
4.140000e+00 5.555562e-02
4.160000e+00 8.712770e-02
4.180000e+00 1.332096e-01
4.200000e+00 1.542764e-01
4.220000e+00 1.841444e-01
4.240000e+00 1.924409e-01
4.260000e+00 2.176876e-01
4.280000e+00 2.011926e-01
4.300000e+00 2.170623e-01
4.320000e+00 2.015400e-01
4.340000e+00 1.539924e-01
4.360000e+00 -1.176218e-01
4.380000e+00 -4.400429e-02
4.400000e+00 -4.060153e-02
4.420000e+00 -5.590561e-02
4.440000e+00 -1.760730e-01
4.460000e+00 -2.614013e-01
4.480000e+00 -3.661352e-01
4.500000e+00 -3.157230e-01
4.520000e+00 -2.785611e-01
4.540000e+00 -1.933510e-01
4.560000e+00 -1.253953e-01
4.580000e+00 -3.196424e-02
4.600000e+00 3.042340e-02
4.620000e+00 1.006838e-01
4.640000e+00 1.418257e-01
4.660000e+00 1.804716e-01
4.680000e+00 -4.554151e-02
4.700000e+00 -5.892361e-02
4.720000e+00 4.785619e-03
4.740000e+00 4.837406e-02
4.760000e+00 1.385356e-01
4.780000e+00 2.156981e-01
4.800000e+00 2.808156e-01
4.820000e+00 3.534509e-01
4.840000e+00 2.557321e-01
4.860000e+00 -1.091293e-01
4.880000e+00 -8.588366e-02
4.900000e+00 -1.087623e-01
4.920000e+00 -9.138285e-02
4.940000e+00 -3.305241e-02
4.960000e+00 -1.062949e-01
4.980000e+00 -1.855812e-01
5.000000e+00 -1.178612e-01
5.020000e+00 -1.207281e-01
5.040000e+00 -8.345801e-02
5.060000e+00 -7.245260e-02
5.080000e+00 -5.019886e-02
5.100000e+00 -3.354110e-02
5.120000e+00 -4.765940e-02
5.140000e+00 -1.266364e-01
5.160000e+00 -1.323714e-01
5.180000e+00 -1.322204e-01
5.200000e+00 -1.435005e-01
5.220000e+00 -1.119871e-01
5.240000e+00 -1.157365e-01
5.260000e+00 -6.763573e-02
5.280000e+00 -1.811390e-01
5.300000e+00 -2.762259e-01
5.320000e+00 -1.777440e-01
5.340000e+00 -1.638002e-01
5.360000e+00 -6.879801e-02
5.380000e+00 -8.558202e-03
5.400000e+00 6.666877e-02
5.420000e+00 1.150743e-01
5.440000e+00 1.368562e-01
5.460000e+00 7.859526e-02
5.480000e+00 2.970305e-02
5.500000e+00 -8.695671e-03
5.520000e+00 2.142390e-02
5.540000e+00 4.471859e-02
5.560000e+00 9.537772e-02
5.580000e+00 1.391843e-01
5.600000e+00 1.851789e-01
5.620000e+00 2.158364e-01
5.640000e+00 2.309350e-01
5.660000e+00 1.427256e-01
5.680000e+00 3.988357e-02
5.700000e+00 -3.728340e-02
5.720000e+00 -4.690193e-02
5.740000e+00 -4.839556e-02
5.760000e+00 -3.105172e-02
5.780000e+00 -4.382471e-02
5.800000e+00 -5.747008e-02
5.820000e+00 -3.965035e-02
5.840000e+00 -8.317127e-03
5.860000e+00 3.670522e-03
5.880000e+00 2.314914e-02
5.900000e+00 5.654036e-02
5.920000e+00 8.807091e-02
5.940000e+00 1.357439e-01
5.960000e+00 1.805551e-01
5.980000e+00 2.171278e-01
6.000000e+00 1.819279e-01
6.020000e+00 1.386561e-01
6.040000e+00 6.971259e-02
6.060000e+00 6.921245e-02
6.080000e+00 5.344901e-02
6.100000e+00 2.951454e-02
6.120000e+00 -4.674087e-02
6.140000e+00 -6.260390e-02
6.160000e+00 -6.542785e-02
6.180000e+00 -5.856024e-02
6.200000e+00 -4.456907e-02
6.220000e+00 -3.083438e-02
6.240000e+00 -7.272976e-02
6.260000e+00 -9.186937e-02
6.280000e+00 -9.626820e-02
6.300000e+00 -6.939736e-02
6.320000e+00 -4.154712e-02
6.340000e+00 -1.723445e-02
6.360000e+00 -2.462517e-03
6.380000e+00 3.241264e-02
6.400000e+00 5.052372e-02
6.420000e+00 5.969803e-02
6.440000e+00 4.921989e-02
6.460000e+00 5.772735e-03
6.480000e+00 -5.984134e-02
6.500000e+00 -1.078558e-01
6.520000e+00 -1.164793e-01
6.540000e+00 -1.277781e-01
6.560000e+00 -1.196904e-01
6.580000e+00 -9.651371e-02
6.600000e+00 -5.949421e-02
6.620000e+00 -4.430929e-03
6.640000e+00 -1.370136e-02
6.660000e+00 1.209103e-02
6.680000e+00 3.551450e-02
6.700000e+00 4.431333e-02
6.720000e+00 5.823942e-02
6.740000e+00 7.802556e-02
6.760000e+00 1.056920e-01
6.780000e+00 1.311194e-01
6.800000e+00 1.571510e-01
6.820000e+00 1.699098e-01
6.840000e+00 1.925877e-01
6.860000e+00 1.736345e-01
6.880000e+00 6.736480e-02
6.900000e+00 -2.233744e-02
6.920000e+00 -4.396567e-02
6.940000e+00 -5.899937e-02
6.960000e+00 -4.944090e-02
6.980000e+00 -5.883718e-02
7.000000e+00 -7.791713e-02
7.020000e+00 -8.644566e-02
7.040000e+00 -6.443723e-02
7.060000e+00 -2.308865e-02
7.080000e+00 6.665847e-03
7.100000e+00 3.830445e-02
7.120000e+00 5.993918e-02
7.140000e+00 7.599420e-02
7.160000e+00 4.354762e-02
7.180000e+00 1.298026e-02
7.200000e+00 2.012928e-03
7.220000e+00 5.701119e-03
7.240000e+00 -2.904423e-02
7.260000e+00 -4.561440e-02
7.280000e+00 -6.619462e-02
7.300000e+00 -7.816984e-02
7.320000e+00 -8.754029e-02
7.340000e+00 -7.565219e-02
7.360000e+00 -7.158231e-02
7.380000e+00 -6.651910e-02
7.400000e+00 -5.047107e-02
7.420000e+00 1.723132e-03
7.440000e+00 4.795252e-02
7.460000e+00 6.723263e-02
7.480000e+00 3.299155e-02
7.500000e+00 1.732712e-02
7.520000e+00 -5.261143e-03
7.540000e+00 -8.847659e-03
7.560000e+00 -4.566106e-04
7.580000e+00 1.527310e-02
7.600000e+00 4.782642e-02
7.620000e+00 8.005440e-02
7.640000e+00 1.117355e-01
7.660000e+00 1.242696e-01
7.680000e+00 1.109166e-01
7.700000e+00 1.036622e-01
7.720000e+00 1.104213e-01
7.740000e+00 1.238867e-01
7.760000e+00 7.044961e-02
7.780000e+00 7.374766e-02
7.800000e+00 3.702289e-02
7.820000e+00 6.256270e-03
7.840000e+00 2.563930e-04
7.860000e+00 -1.839880e-02
7.880000e+00 -2.734277e-02
7.900000e+00 -4.138578e-02
7.920000e+00 -4.779028e-02
7.940000e+00 -5.516867e-02
7.960000e+00 -1.246482e-02
7.980000e+00 2.031035e-02
8.000000e+00 -1.620822e-02
8.020000e+00 -3.675357e-02
8.040000e+00 -3.501785e-02
8.060000e+00 -1.182935e-02
8.080000e+00 -2.214693e-02
8.100000e+00 -1.911375e-02
8.120000e+00 -3.489881e-02
8.140000e+00 -4.162602e-02
8.160000e+00 -5.605443e-02
8.180000e+00 -6.515729e-02
8.200000e+00 -8.366447e-02
8.220000e+00 -8.550192e-02
8.240000e+00 -8.524176e-02
8.260000e+00 -7.785296e-02
8.280000e+00 -7.156104e-02
8.300000e+00 -5.677922e-02
8.320000e+00 -5.878018e-02
8.340000e+00 -4.674594e-02
8.360000e+00 -3.526165e-02
8.380000e+00 -6.973845e-03
8.400000e+00 1.422562e-02
8.420000e+00 5.006278e-02
8.440000e+00 5.399502e-02
8.460000e+00 8.540853e-02
8.480000e+00 8.124902e-02
8.500000e+00 1.061796e-01
8.520000e+00 -4.928151e-02
8.540000e+00 -1.191055e-01
8.560000e+00 -1.344984e-01
8.580000e+00 -1.436042e-01
8.600000e+00 -1.306240e-01
8.620000e+00 -1.098085e-01
8.640000e+00 -8.273190e-02
8.660000e+00 -5.593253e-02
8.680000e+00 -3.172195e-02
8.700000e+00 -9.307269e-03
8.720000e+00 8.970692e-03
8.740000e+00 5.243790e-03
8.760000e+00 -6.085790e-03
8.780000e+00 4.798762e-03
8.800000e+00 3.878189e-02
8.820000e+00 6.170868e-02
8.840000e+00 5.925257e-02
8.860000e+00 9.393440e-02
8.880000e+00 1.306162e-01
8.900000e+00 1.597467e-01
8.920000e+00 1.834780e-01
8.940000e+00 2.241693e-01
8.960000e+00 1.347025e-01
8.980000e+00 -1.351779e-01
9.000000e+00 -7.485227e-02
9.020000e+00 -1.005148e-01
9.040000e+00 -9.414082e-02
9.060000e+00 -1.855204e-01
9.080000e+00 -1.591167e-01
9.100000e+00 -1.500125e-01
9.120000e+00 -1.515529e-01
9.140000e+00 -1.193496e-01
9.160000e+00 -3.756948e-02
9.180000e+00 3.856145e-02
9.200000e+00 1.427778e-01
9.220000e+00 2.340688e-01
9.240000e+00 1.606594e-01
9.260000e+00 9.741275e-02
9.280000e+00 1.063045e-01
9.300000e+00 1.834025e-02
9.320000e+00 -4.316471e-02
9.340000e+00 -1.203416e-01
9.360000e+00 -1.781251e-01
9.380000e+00 -2.195761e-01
9.400000e+00 -2.129228e-01
9.420000e+00 -1.503991e-01
9.440000e+00 -7.424360e-02
9.460000e+00 2.950899e-03
9.480000e+00 8.533905e-02
9.500000e+00 1.771168e-01
9.520000e+00 2.330910e-01
9.540000e+00 2.435545e-02
9.560000e+00 5.419523e-02
9.580000e+00 4.164036e-02
9.600000e+00 4.415531e-02
9.620000e+00 5.666461e-02
9.640000e+00 9.484977e-02
9.660000e+00 1.204067e-01
9.680000e+00 -3.431545e-03
9.700000e+00 -5.563180e-02
9.720000e+00 -2.076297e-02
9.740000e+00 -2.767805e-02
9.760000e+00 -1.590283e-02
9.780000e+00 1.308032e-03
9.800000e+00 4.385531e-02
9.820000e+00 7.952836e-02
9.840000e+00 1.104230e-01
9.860000e+00 1.245258e-01
9.880000e+00 9.796904e-02
9.900000e+00 5.865585e-02
9.920000e+00 1.119940e-02
9.940000e+00 3.751398e-03
9.960000e+00 -6.058577e-02
9.980000e+00 -6.436480e-02
1.000000e+01 -1.540427e-02
1.002000e+01 3.043766e-02
1.004000e+01 9.140035e-02
1.006000e+01 5.303303e-02
1.008000e+01 3.748406e-02
1.010000e+01 4.090590e-02
1.012000e+01 -1.602716e-03
1.014000e+01 -4.654977e-02
1.016000e+01 -9.542888e-02
1.018000e+01 -1.066849e-01
1.020000e+01 -1.091488e-01
1.022000e+01 -8.973166e-02
1.024000e+01 -4.499656e-02
1.026000e+01 7.508897e-03
1.028000e+01 5.563523e-02
1.030000e+01 9.391436e-02
1.032000e+01 3.939188e-02
1.034000e+01 -2.971234e-02
1.036000e+01 -1.179191e-01
1.038000e+01 -1.178956e-01
1.040000e+01 -1.145584e-01
1.042000e+01 -1.708424e-01
1.044000e+01 -1.513055e-01
1.046000e+01 -6.044427e-02
1.048000e+01 1.642572e-02
1.050000e+01 1.109226e-01
1.052000e+01 1.625816e-01
1.054000e+01 2.077915e-01
1.056000e+01 1.850569e-01
1.058000e+01 1.349392e-01
1.060000e+01 8.638512e-02
1.062000e+01 3.619320e-02
1.064000e+01 -1.064437e-02
1.066000e+01 -2.605571e-02
1.068000e+01 -6.219422e-02
1.070000e+01 -9.126955e-02
1.072000e+01 -1.188516e-01
1.074000e+01 -1.288916e-01
1.076000e+01 -1.000972e-01
1.078000e+01 -7.645014e-02
1.080000e+01 -3.780161e-02
1.082000e+01 -2.043650e-02
1.084000e+01 -2.355008e-02
1.086000e+01 -4.605209e-03
1.088000e+01 -1.060631e-02
1.090000e+01 -2.295644e-02
1.092000e+01 2.149430e-02
1.094000e+01 4.499345e-02
1.096000e+01 7.380389e-02
1.098000e+01 9.526750e-02
1.100000e+01 8.771838e-02
1.102000e+01 3.073312e-02
1.104000e+01 -1.842364e-02
1.106000e+01 -7.401589e-02
1.108000e+01 -7.127520e-02
1.110000e+01 -6.351494e-02
1.112000e+01 -4.904921e-02
1.114000e+01 -3.123212e-02
1.116000e+01 -5.688126e-03
1.118000e+01 -1.608691e-02
1.120000e+01 -6.207813e-02
1.122000e+01 -6.766365e-02
1.124000e+01 -7.762484e-02
1.126000e+01 -5.070230e-02
1.128000e+01 -2.348413e-02
1.130000e+01 1.844723e-03
1.132000e+01 1.564221e-02
1.134000e+01 1.963960e-02
1.136000e+01 5.778337e-04
1.138000e+01 -6.003914e-02
1.140000e+01 -1.073870e-01
1.142000e+01 -1.699671e-01
1.144000e+01 -2.187745e-01
1.146000e+01 -2.015546e-01
1.148000e+01 -1.866960e-01
1.150000e+01 -1.457745e-01
1.152000e+01 -1.084647e-01
1.154000e+01 -6.007562e-02
1.156000e+01 -1.836688e-02
1.158000e+01 3.043719e-02
1.160000e+01 6.353467e-02
1.162000e+01 9.572315e-02
1.164000e+01 1.137311e-01
1.166000e+01 1.305726e-01
1.168000e+01 1.464818e-01
1.170000e+01 1.671779e-01
1.172000e+01 1.799946e-01
1.174000e+01 1.999502e-01
1.176000e+01 2.160148e-01
1.178000e+01 2.342762e-01
1.180000e+01 2.614136e-01
1.182000e+01 2.770991e-01
1.184000e+01 2.826935e-01
1.186000e+01 1.675032e-01
1.188000e+01 4.602648e-02
1.190000e+01 -4.438715e-02
1.192000e+01 -1.246013e-01
1.194000e+01 -1.178601e-01
1.196000e+01 -1.314059e-01
1.198000e+01 -1.488661e-01
1.200000e+01 -1.625154e-01
1.202000e+01 -1.354571e-01
1.204000e+01 -1.123793e-01
1.206000e+01 -9.634066e-02
1.208000e+01 -9.075469e-02
1.210000e+01 -1.183953e-01
1.212000e+01 -1.514179e-01
1.214000e+01 -1.746558e-01
1.216000e+01 -1.918374e-01
1.218000e+01 -1.922276e-01
1.220000e+01 -1.796153e-01
1.222000e+01 -1.529694e-01
1.224000e+01 -8.180882e-02
1.226000e+01 1.997741e-02
1.228000e+01 6.200156e-02
1.230000e+01 7.965013e-02
1.232000e+01 1.129375e-01
1.234000e+01 6.891094e-02
1.236000e+01 3.442290e-02
1.238000e+01 3.976289e-02
1.240000e+01 3.098374e-02
1.242000e+01 1.811690e-02
1.244000e+01 2.683295e-03
1.246000e+01 4.147892e-03
1.248000e+01 2.755144e-02
1.250000e+01 8.946929e-02
1.252000e+01 9.388746e-02
1.254000e+01 1.046865e-01
1.256000e+01 1.244223e-01
1.258000e+01 1.004882e-01
1.260000e+01 7.074146e-02
1.262000e+01 5.696417e-02
1.264000e+01 1.479643e-02
1.266000e+01 1.133582e-02
1.268000e+01 4.938246e-03
1.270000e+01 7.994677e-03
1.272000e+01 -6.198066e-03
1.274000e+01 -3.511568e-02
1.276000e+01 -6.663452e-02
1.278000e+01 -6.720547e-02
1.280000e+01 -5.507085e-02
1.282000e+01 -3.716068e-02
1.284000e+01 -1.487181e-02
1.286000e+01 -9.667120e-03
1.288000e+01 4.645868e-03
1.290000e+01 1.485888e-02
1.292000e+01 3.304340e-02
1.294000e+01 2.461983e-02
1.296000e+01 5.014143e-02
1.298000e+01 8.173824e-02
1.300000e+01 1.148082e-01
1.302000e+01 1.452885e-01
1.304000e+01 1.598108e-01
1.306000e+01 1.603165e-01
1.308000e+01 1.704565e-01
1.310000e+01 1.430328e-01
1.312000e+01 1.225806e-01
1.314000e+01 1.510103e-02
1.316000e+01 -6.062219e-02
1.318000e+01 -1.105599e-01
1.320000e+01 -1.574856e-01
1.322000e+01 -1.684038e-01
1.324000e+01 -1.565201e-01
1.326000e+01 -1.132505e-01
1.328000e+01 -8.146392e-02
1.330000e+01 -7.376916e-03
1.332000e+01 5.854847e-02
1.334000e+01 3.354579e-03
1.336000e+01 -9.568472e-03
1.338000e+01 2.381641e-02
1.340000e+01 3.963667e-02
1.342000e+01 6.858518e-02
1.344000e+01 1.659221e-02
1.346000e+01 -6.038790e-02
1.348000e+01 -6.490263e-02
1.350000e+01 8.485671e-03
1.352000e+01 2.687311e-02
1.354000e+01 5.222043e-02
1.356000e+01 1.817747e-02
1.358000e+01 -1.517941e-02
1.360000e+01 -5.124863e-02
1.362000e+01 -6.694217e-02
1.364000e+01 -8.976568e-02
1.366000e+01 -8.196460e-02
1.368000e+01 -5.936554e-02
1.370000e+01 -3.219669e-02
1.372000e+01 1.262941e-02
1.374000e+01 6.712369e-02
1.376000e+01 9.570122e-02
1.378000e+01 1.793174e-01
1.380000e+01 1.691170e-01
1.382000e+01 7.439960e-02
1.384000e+01 -1.184915e-02
1.386000e+01 -1.068825e-01
1.388000e+01 -1.076460e-01
1.390000e+01 -1.095601e-01
1.392000e+01 -8.743791e-02
1.394000e+01 -5.239590e-02
1.396000e+01 -1.684079e-02
1.398000e+01 1.552694e-02
1.400000e+01 3.299140e-02
1.402000e+01 7.095232e-02
1.404000e+01 -5.002545e-03
1.406000e+01 -7.745935e-02
1.408000e+01 -8.657227e-02
1.410000e+01 -1.397362e-01
1.412000e+01 -1.280154e-01
1.414000e+01 -1.032835e-01
1.416000e+01 -3.357315e-02
1.418000e+01 5.752850e-02
1.420000e+01 1.102043e-01
1.422000e+01 1.878190e-01
1.424000e+01 2.153970e-01
1.426000e+01 1.981253e-01
1.428000e+01 1.379015e-01
1.430000e+01 6.095460e-02
1.432000e+01 -7.115329e-06
1.434000e+01 -3.784909e-02
1.436000e+01 -2.393893e-02
1.438000e+01 -2.119120e-02
1.440000e+01 1.565962e-02
1.442000e+01 4.588176e-03
1.444000e+01 -2.949377e-02
1.446000e+01 -3.442031e-02
1.448000e+01 -4.145283e-02
1.450000e+01 -1.805061e-02
1.452000e+01 -1.568800e-02
1.454000e+01 -2.804780e-02
1.456000e+01 -3.882967e-02
1.458000e+01 -4.394238e-02
1.460000e+01 -6.159242e-02
1.462000e+01 -7.380497e-02
1.464000e+01 -4.584394e-02
1.466000e+01 4.049741e-03
1.468000e+01 2.437708e-02
1.470000e+01 5.980587e-02
1.472000e+01 7.111865e-02
1.474000e+01 7.974312e-02
1.476000e+01 8.719545e-02
1.478000e+01 1.089542e-01
1.480000e+01 6.071851e-02
1.482000e+01 -2.162571e-02
1.484000e+01 -3.902227e-02
1.486000e+01 -2.057457e-02
1.488000e+01 -2.342516e-02
1.490000e+01 -3.705920e-03
1.492000e+01 -2.810536e-03
1.494000e+01 -3.736275e-02
1.496000e+01 -6.537102e-02
1.498000e+01 -8.418571e-02
1.500000e+01 -4.972911e-02
1.502000e+01 -5.564885e-03
1.504000e+01 3.277627e-02
